reading_id,reading_time,wire_id,result_classification,heart_rate,heart_rate_alert,firmware_version,device_app_version,hardware_version,waveform_samples
ba9ae440-de82-11eb-8080-808080808080,Tue Jul 06 17:51:02 UTC 2021,697859ae582c,NSR,77,NONE,128.4.17,2.4.0,Sense,[32767  32767  32767  32767  32767  32767  32767  32767  32767  32767  32767  32767  32767  32767  32767  32767  32767  32767  32767  32767  32767  32767  32767  32767  32767  32767  32767  32767  32767  32767  32767  32767  32767  -10225  -32768  -32768  -32768  -32768  -32768  -32768  -32768  -32768  -32768  -32768  -32768  -32768  -32768  -32768  -32768  -32768  -32768  -32768  -32768  -32768  -32768  -32768  -32768  -32768  -32768  -32768  -32768  -32768  -32768  -32768  -32768  -32768  -32768  -32768  -32768  -32768  -32768  -32768  -32768  -32768  -32768  -32768  -32768  -32768  -32768  -32768  -32768  -32768  -32768  -32768  -32768  -32768  -32768  -32768  -32768  -32768  -32768  -32768  -32768  -32768  -32768  -32768  -32768  -32768  -32768  -32768  -32768  -32768  -32768  -32768  -32768  -32768  -32768  -32768  -32768  -32768  -32768  -32768  -31129  -29160  -27190  -25237  -23301  -21367  -19430  -17496  -15588  -13733  -11936  -10169  -8396  -6609  -4823  -3050  -1303  408  2089  3752  5404  7040  8660  10281  11927  13585  15207  16792  18397  20055  21727  23352  24893  26337  27718  29118  30578  32026  32767  32767  32767  32767  32767  32767  32767  32767  32767  32767  31953  29419  27390  25751  24072  22162  20186  18278  16470  14807  13283  11832  10444  9158  8005  6928  5819  4666  3529  2415  1376  499  -278  -1069  -1895  -2744  -3572  -4319  -4991  -5606  -6189  -6797  -7420  -7995  -8507  -8946  -9284  -9572  -9881  -10188  -10453  -10699  -10952  -11183  -11348  -11467  -11599  -11764  -11927  -12046  -12118  -12177  -12270  -12413  -12579  -12723  -12817  -12869  -12916  -12994  -13096  -13166  -13152  -13050  -12897  -12744  -12626  -12549  -12510  -12491  -12459  -12394  -12312  -12231  -12127  -11974  -11806  -11685  -11589  -11444  -11236  -11026  -10855  -10712  -10582  -10472  -10380  -10266  -10083  -9826  -9550  -9332  -9204  -9135  -9057  -8908  -8710  -8533  -8387  -8189  -7871  -7499  -7211  -7021  -6841  -6611  -6325  -6017  -5764  -5606  -5494  -5323  -5008  -4599  -4254  -4058  -3953  -3876  -3826  -3805  -3779  -3708  -3596  -3470  -3314  -3078  -2769  -2453  -2174  -1945  -1782  -1682  -1585  -1404  -1089  -603  153  1180  2190  2815  2838  2096  620  -1019  -2060  -2224  -1675  -724  228  868  1171  1320  1493  1726  1928  2032  2062  2078  2145  2296  2490  2658  2795  2932  3082  3246  3412  3559  3690  3808  3893  3921  3912  3939  4091  4378  4700  4944  5095  5203  5320  5463  5630  5808  5973  6117  6267  6423  6542  6597  6619  6646  6686  6721  6735  6743  6771  6815  6854  6876  6890  6890  6843  6709  6511  6326  6208  6138  6076  6006  5945  5913  5917  5953  6013  6080  6123  6121  6080  6037  6015  6011  6018  6033  6053  6066  6069  6064  6061  6073  6113  6170  6217  6240  6248  6249  6248  6248  6253  6261  6265  6257  6242  6226  6211  6197  6185  6176  6176  6188  6202  6204  6187  6145  6080  6005  5939  5893  5871  5867  5874  5886  5899  5913  5915  5879  5788  5665  5551  5450  5341  5228  5147  5122  5134  5153  5177  5195  5189  5155  5110  5066  5014  4937  4848  4780  4741  4716  4688  4640  4566  4482  4411  4359  4312  4248  4165  4074  3988  3919  3869  3852  3879  3918  3921  3878  3818  3778  3769  3774  3781  3784  3784  3775  3746  3695  3637  3596  3579  3550  3459  3285  3070  2854  2620  2343  2075  1906  1854  1858  1855  1820  1765  1713  1678  1668  1715  1875  2174  2585  3052  3504  3865  4060  3874  2944  1265  -467  -1476  -1585  -1059  -267  413  771  855  809  748  743  804  886  947  982  1005  1022  1038  1050  1045  1026  1016  1022  1038  1060  1090  1142  1217  1280  1313  1330  1350  1371  1390  1400  1402  1413  1457  1527  1598  1676  1770  1864  1922  1920  1846  1717  1590  1519  1509  1531  1560  1581  1587  1570  1518  1425  1293  1136  987  855  719  560  395  256  157  93  44  -4  -55  -107  -165  -238  -320  -386  -417  -408  -378  -345  -309  -279  -274  -296  -330  -354  -366  -378  -393  -405  -409  -410  -413  -424  -438  -447  -450  -449  -436  -406  -365  -335  -323  -322  -338  -389  -460  -518  -546  -552  -551  -548  -547  -547  -547  -554  -578  -631  -692  -731  -743  -732  -703  -677  -666  -654  -632  -617  -625  -649  -681  -731  -805  -891  -980  -1079  -1164  -1188  -1145  -1065  -983  -938  -935  -940  -940  -944  -943  -923  -882  -834  -799  -776  -748  -701  -636  -560  -486  -421  -365  -313  -249  -150  -7  143  253  310  333  345  372  433  515  583  593  488  238  -71  -296  -396  -432  -456  -467  -453  -425  -402  -389  -383  -374  -325  -193  45  455  1158  2156  3179  3757  3398  1894  -359  -2435  -3459  -3210  -2150  -957  -123  205  190  90  60  120  219  293  323  324  318  312  306  298  287  278  280  295  321  347  377  416  461  497  510  494  468  461  476  508  543  573  604  649  703  753  788  816  843  864  874  875  871  863  861  888  965  1066  1128  1108  1009  867  720  570  393  209  62  -42  -125  -189  -239  -295  -387  -532  -703  -831  -884  -888  -880  -880  -884  -876  -827  -727  -608  -530  -509  -521  -538  -551  -561  -577  -602  -635  -666  -676  -669  -683  -715  -704  -637  -578  -579  -630  -690  -734  -764  -784  -784  -759  -721  -677  -632  -594  -568  -550  -540  -538  -538  -536  -535  -557  -628  -739  -836  -871  -833  -753  -672  -619  -589  -564  -529  -489  -450  -427  -454  -534  -620  -682  -722  -743  -749  -745  -737  -729  -720  -706  -677  -628  -565  -500  -451  -427  -425  -433  -447  -457  -438  -359  -227  -89  25  127  238  359  463  521  535  519  476  400  314  244  162  12  -191  -357  -443  -476  -479  -467  -478  -532  -604  -667  -703  -686  -606  -448  -197  122  541  1244  2318  3434  3973  3405  1597  -930  -3088  -3962  -3501  -2304  -1072  -284  -32  -86  -184  -215  -173  -78  37  130  175  187  208  274  381  483  537  547  541  535  534  535  536  541  555  585  628  671  698  706  703  698  695  699  729  799  895  975  1016  1025  1020  1025  1058  1108  1149  1155  1093  962  838  786  786  788  755  688  607  519  423  320  187  9  -174  -290  -325  -334  -375  -474  -605  -719  -786  -811  -807  -786  -761  -743  -738  -743  -758  -784  -814  -835  -837  -820  -793  -776  -775  -763  -718  -640  -554  -505  -512  -545  -569  -579  -579  -552  -477  -375  -299  -278  -302  -352  -411  -457  -459  -399  -286  -162  -78  -39  -14  10  16  -8  -49  -84  -115  -168  -247  -321  -366  -384  -387  -364  -300  -213  -148  -125  -131  -156  -197  -260  -350  -451  -510  -494  -441  -392  -358  -332  -309  -285  -263  -249  -247  -249  -248  -233  -201  -153  -87  -8  66  120  151  180  238  332  432  505  541  539  511  468  412  344  258  111  -113  -348  -512  -593  -625  -641  -653  -665  -700  -752  -758  -691  -586  -458  -293  -35  469  1349  2476  3384  3506  2488  394  -2076  -3819  -4152  -3243  -1816  -599  67  262  234  177  155  163  189  218  236  236  229  232  265  346  458  552  602  622  624  624  647  682  695  680  674  707  760  803  834  860  887  914  940  966  1004  1055  1107  1155  1214  1303  1406  1479  1500  1479  1435  1385  1341  1313  1292  1258  1201  1127  1039  933  825  734  646  517  328  106  -92  -223  -281  -288  -278  -268  -266  -283  -325  -379  -418  -429  -426  -422  -424  -434  -449  -459  -464  -471  -482  -487  -471  -420  -338  -255  -205  -194  -213  -249  -287  -312  -324  -331  -347  -379  -415  -442  -442  -406  -359  -345  -362  -382  -393  -401  -415  -436  -457  -466  -467  -464  -464  -469  -486  -517  -554  -588  -611  -620  -621  -617  -609  -599  -590  -582  -574  -568  -567  -568  -569  -564  -549  -527  -512  -523  -555  -585  -609  -648  -717  -806  -887  -911  -837  -704  -584  -499  -444  -410  -373  -323  -273  -236  -207  -164  -89  3  82  135  167  187  194  157  32  -178  -407  -578  -668  -694  -673  -609  -519  -451  -452  -515  -569  -545  -401  -130  190  526  1081  2037  3169  3901  3648  2132  -292  -2588  -3718  -3462  -2384  -1203  -374  -11  48  38  59  93  114  120  117  114  112  116  136  175  220  258  294  330  355  365  372  387  420  482  562  630  674  724  795  869  923  966  1020  1093  1173  1252  1332  1409  1480  1546  1602  1643  1671  1692  1706  1705  1670  1584  1442  1269  1121  1029  947  797  566  319  132  23  -43  -115  -217  -326  -398  -422  -424  -434  -464  -519  -590  -660  -724  -789  -849  -882  -874  -823  -754  -704  -693  -713  -747  -793  -855  -908  -906  -845  -765  -680  -578  -487  -454  -460  -453  -436  -432  -437  -435  -420  -397  -375  -363  -363  -362  -338  -288  -228  -186  -164  -145  -122  -103  -94  -97  -101  -91  -68  -50  -66  -128  -211  -278  -311  -309  -280  -238  -196  -172  -195  -283  -409  -509  -555  -554  -523  -475  -430  -398  -371  -341  -317  -307  -306  -300  -267  -198  -120  -76  -85  -119  -145  -141  -86  27  174  303  389  453  529  635  754  846  894  913  920  919  898  855  807  765  685  508  257  33  -101  -183  -274  -375  -446  -468  -452  -400  -320  -254  -226  -217  -208  -146  115  768  1838  3034  3808  3608  2197  -136  -2508  -3908  -3977  -3112  -1954  -1056  -650  -576  -576  -544  -499  -467  -448  -425  -387  -335  -270  -202  -149  -121  -110  -100  -84  -62  -31  17  82  148  210  272  347  439  529  585  590  564  542  542  551  556  567  610  694  797  893  984  1085  1178  1222  1218  1203  1200  1205  1204  1173  1099  1006  914  798  641  477  349  250  154  56  -19  -68  -110  -157  -200  -230  -264  -331  -446  -599  -746  -835  -831  -738  -600  -480  -410  -380  -370  -383  -421  -456  -454  -400  -313  -227  -167  -131  -109  -85  -49  -12  3  -8  -37  -77  -131  -195  -252  -287  -302  -302  -295  -298  -326  -377  -435  -477  -497  -498  -484  -448  -389  -332  -304  -308  -332  -353  -363  -372  -388  -402  -389  -345  -295  -266  -259  -262  -271  -289  -316  -337  -342  -340  -340  -328  -298  -271  -261  -264  -270  -274  -281  -294  -305  -308  -302  -277  -228  -178  -132  -80  -39  -18  8  48  87  127  169  212  272  365  486  606  704  775  825  869  916  955  979  986  961  861  659  383  103  -109  -216  -239  -227  -215  -209  -217  -238  -259  -259  -209  -74  130  361  737  1484  2558  3486  3646  2627  489  -2013  -3740  -4057  -3238  -1989  -959  -497  -492  -599  -630  -595  -539  -479  -411  -334  -260  -199  -157  -133  -116  -89  -31  66  185  281  329  343  352  363  372  386  413  446  474  506  561  639  713  762  803  862  935  995  1038  1088  1150  1201  1227  1236  1237  1237  1242  1248  1229  1162  1043  892  739  609  502  385  241  96  -13  -84  -140  -216  -327  -450  -533  -556  -540  -521  -512  -511  -514  -524  -544  -573  -603  -622  -627  -627  -629  -638  -648  -647  -613  -533  -437  -374  -364  -393  -446  -511  -560  -560  -521  -485  -472  -467  -459  -454  -454  -441  -403  -352  -308  -275  -252  -238  -229  -220  -206  -184  -163  -163  -187  -216  -242  -276  -317  -347  -358  -355  -348  -338  -316  -269  -202  -136  -87  -56  -45  -63  -122  -204  -262  -258  -191  -99  -32  -9  -8  -8  -4  5  26  56  89  109  96  44  -13  -43  -58  -84  -126  -164  -184  -192  -189  -163  -102  -26  19  10  -27  -26  56  179  263  283  260  213  150  63  -58  -230  -422  -563  -620  -610  -550  -458  -370  -312  -287  -295  -335  -366  -309  -140  95  420  1022  2031  3211  3958  3646  2024  -517  -2959  -4220  -3963  -2753  -1442  -565  -197  -140  -181  -215  -224  -207  -164  -106  -32  50  107  126  129  162  254  378  472  504  498  488  508  579  698  823  915  962  978  978  981  987  987  979  980  1011  1084  1188  1302  1403  1472  1504  1504  1470  1400  1318  1261  1239  1228  1208  1178  1129  1044  908  728  520  308  111  -64  -198  -279  -330  -379  -427  -466  -500  -539  -589  -651  -725  -798  -848  -857  -832  -799  -777  -760  -742  -715  -675  -630  -600  -591  -598  -606  -584  -506  -392  -288  -221  -188  -174  -169  -170  -176  -182  -184  -180  -173  -167  -165  -164  -167  -178  -200  -227  -246  -251  -249  -255  -289  -364  -469  -559  -593  -568  -513  -466  -445  -443  -447  -452  -459  -466  -465  -454  -436  -420  -410  -402  -381  -348  -313  -284  -268  -265  -260  -243  -219  -210  -237  -298  -363  -403  -416  -416  -405  -380  -346  -319  -308  -310  -316  -318  -311  -298  -283  -263  -240  -220  -189  -112  28  197  339  429  482  518  542  555  558  559  568  575  545  429  219  -12  -183  -282  -341  -374  -382  -375  -371  -400  -464  -489  -395  -180  88  312  483  790  1472  2524  3567  3977  3212  1209  -1349  -3328  -3947  -3281  -1999  -856  -262  -145  -206  -241  -201  -116  -24  52  108  141  163  195  240  281  300  317  382  505  641  758  841  880  880  855  821  794  778  773  773  772  765  754  747  751  771  801  834  870  907  932  941  940  936  925  911  907  913  898  831  720  588  460  355  267  180  90  6  -87  -211  -369  -550  -715  -819  -851  -845  -828  -811  -797  -779  -736  -663  -608  -619  -670  -713  -741  -768  -798  -815  -787  -692  -561  -462  -418  -405  -403  -419  -461  -501  -490  -419  -332  -262  -218  -196  -186  -174  -159  -154  -162  -167  -157  -138  -125  -120  -118  -113  -105  -103  -112  -125  -136  -148  -167  -194  -213  -203  -164  -122  -96  -86  -91  -111  -146  -188  -226  -251  -272  -296  -308  -294  -264  -237  -218  -208  -209  -223  -250  -278  -300  -313  -315  -293  -233  -149  -82  -51  -40  -36  -39  -57  -89  -126  -156  -170  -148  -64  71  206  300  378  483  619  753  851  898  898  856  778  678  563  423  261  101  -40  -154  -221  -237  -229  -236  -284  -359  -424  -486  -562  -594  -502  -254  180  888  1897  2997  3728  3564  2202  -108  -2466  -3846  -3871  -2944  -1744  -812  -375  -289  -270  -179  -41  89  178  219  225  222  240  289  338  355  349  349  385  450  511  549  570  578  580  587  609  652  714  787  853  900  926  947  962  970  979  1007  1068  1149  1215  1244  1246  1242  1239  1236  1227  1203  1158  1096  1031  967  878  755  616  481  347  218  95  -41  -195  -325  -387  -392  -382  -399  -463  -563  -659  -733  -807  -897  -982  -1031  -1038  -1023  -1004  -982  -951  -908  -860  -819  -796  -789  -771  -714  -640  -593  -580  -583  -589  -595  -599  -602  -602  -595  -575  -536  -473  -403  -351  -327  -321  -322  -325  -328  -336  -353  -391  -447  -478  -446  -372  -302  -264  -254  -267  -317  -427  -565  -662  -692  -677  -639  -592  -552  -524  -492  -430  -335  -241  -169  -118  -108  -152  -217  -260  -266  -242  -208  -188  -180  -167  -135  -86  -35  0  26  51  66  56  35  20  11  5  13  54  135  227  297  348  404  472  549  627  698  753  787  797  787  760  723  692  685  701  703  615  378  50  -225  -370  -419  -427  -421  -413  -416  -442  -487  -503  -448  -371  -305  -155  191  796  1723  2878  3867  4156  3354  1445  -1042  -3109  -3915  -3430  -2247  -1058  -370  -229  -289  -293  -235  -169  -114  -79  -66  -67  -73  -80  -85  -89  -93  -84  -49  7  60  84  93  120  183  261  314  325  306  279  261  259  283  329  376  413  443  465  484  500  515  535  572  622  669  699  716  722  709  670  622  589  558  483  329  105  -143  -343  -449  -484  -496  -521  -572  -639  -698  -739  -778  -824  -858  -862  -850  -848  -870  -911  -952  -975  -966  -915  -822  -709  -619  -569  -537  -491  -419  -346  -314  -343  -404  -456  -483  -490  -466  -392  -284  -187  -116  -49  19  65  76  70  66  67  67  62  54  48  50  61  74  85  90  90  93  105  124  138  128  85  21  -31  -60  -72  -74  -63  -20  69  186  269  280  245  208  191  192  199  200  196  197  209  229  248  260  267  271  262  228  178  136  116  116  135  171  217  257  285  304  324  358  411  463  497  511  517  521  523  516  504  499  508  501  421  238  12  -152  -214  -205  -170  -137  -113  -99  -101  -121  -127  -70  80  307  552  818  1276  2112  3193  3994  3885  2501  78  -2439  -3900  -3854  -2785  -1475  -481  -32  22  9  51  94  103  99  107  143  197  244  277  307  339  376  421  469  519  564  591  598  599  606  618  627  629  624  621  636  685  749  796  815  835  889  965  1025  1048  1048  1041  1033  1020  1003  982  944  879  793  690  567  436  323  228  124  -3  -152  -320  -500  -672  -808  -906  -990  -1048  -1045  -1003  -972  -966  -985  -1026  -1069  -1098  -1109  -1111  -1109  -1108  -1099  -1076  -1039  -1003  -976  -955  -926  -888  -847  -808  -782  -790  -827  -850  -824  -753  -677  -621  -559  -446  -293  -174  -156  -227  -326  -419  -493  -537  -550  -549  -543  -535  -545  -605  -698  -758  -736  -654  -567  -515  -499  -501  -506  -508  -519  -552  -597  -636  -658  -645  -564  -405  -236  -140  -125  -149  -179  -193  -189  -179  -170  -161  -155  -154  -149  -126  -84  -34  8  26  14  -17  -47  -59  -45  -4  49  96  131  163  210  292  427  594  735  811  833  844  864  876  849  789  740  708  640  488  278  93  -25  -88  -108  -101  -95  -102  -114  -126  -154  -213  -259  -210  -16  339  894  1735  2846  3868  4233  3489  1564  -961  -3003  -3780  -3326  -2208  -1090  -424  -260  -342  -423  -420  -361  -290  -241  -222  -211  -178  -120  -59  -18  -6  -18  -35  -43  -43  -44  -47  -43  -14  49  144  259  365  436  462  453  432  426  460  539  634  705  745  790  871  983  1085  1150  1178  1189  1196  1194  1162  1085  990  920  876  824  732  611  488  374  255  107  -76  -264  -407  -490  -536  -564  -571  -551  -511  -469  -426  -368  -303  -255  -223  -192  -160  -135  -117  -107  -102  -98  -98  -102  -103  -88  -56  -19  3  12  29  56  84  107  120  125  124  114  110  126  155  178  186  185  186  191  197  197  191  184  180  174  147  87  14  -35  -44  -23  7  27  34  32  29  27  26  28  30  32  35  38  41  46  49  36  -2  -56  -95  -105  -101  -102  -127  -188  -266  -322  -342  -343  -346  -353  -358  -360  -367  -384  -393  -379  -355  -352  -389  -460  -537  -594  -617  -591  -498  -360  -220  -102  2  88  138  143  111  62  20  -1  -15  -47  -130  -279  -463  -619  -712  -761  -800  -832  -847  -860  -882  -897  -903  -887  -786  -571  -299  7  452  1183  2204  3176  3503  2697  721  -1766  -3649  -4173  -3454  -2193  -1100  -499  -304  -275  -261  -236  -213  -193  -169  -142  -116  -88  -50  -2  41  71  99  146  204  243  249  242  246  259  268  267  263  277  328  409  490  562  632  695  733  742  739  750  794  859  917  957  995  1049  1125  1219  1284  1258  1156  1053  959  825  663  550  508  464  345  164  2  -119  -240  -366  -456  -491  -491  -483  -486  -505  -540  -589  -643  -699  -766  -834  -860  -804  -678  -553  -493  -492  -510  -523  -525  -510  -474  -429  -394  -379  -371  -363  -351  -339  -333  -331  -320  -288  -243  -207  -186  -176  -171  -166  -158  -138  -96  -42  -4  4  -5  -17  -16  8  63  133  183  188  149  87  30  -4  -13  1  25  43  49  51  60  84  116  138  144  144  152  175  206  221  196  128  46  6  35  98  151  185  205  212  212  203  180  150  118  84  45  13  6  38  127  280  461  607  680  693  682  668  656  636  611  604  617  590  469  269  54  -118  -236  -329  -431  -534  -599  -608  -575  -525  -463  -365  -233  -118  -34  60  250  699  1528  2550  3274  3172  1946  -228  -2537  -3943  -4019  -3105  -1825  -768  -240  -112  -85  -13  87  167  208  220  212  190  164  143  125  106  81  56  50  91  190  316  395  394  369  372  392  405  413  436  491  565  617  632  627  629  657  709  770  833  907  992  1068  1119  1152  1170  1169  1143  1100  1055  1011  947  843  701  541  385  248  132  14  -120  -249  -347  -428  -522  -626  -711  -772  -819  -859  -888  -907  -918  -934  -956  -979  -999  -1017  -1033  -1042  -1049  -1057  -1060  -1030  -943  -821  -723  -675  -662  -662  -663  -661  -651  -621  -561  -492  -458  -485  -554  -623  -662  -675  -665  -618  -523  -401  -297  -247  -244  -258  -267  -266  -261  -258  -258  -260  -264  -264  -252  -217  -155  -85  -36  -20  -24  -40  -68  -105  -139  -154  -143  -118  -94  -77  -67  -69  -86  -118  -161  -205  -237  -253  -257  -254  -250  -255  -270  -286  -289  -269  -243  -230  -230  -229  -216  -185  -141  -88  -28  35  94  163  268  404  538  637  689  698  680  638  563  437  270  102  -29  -114  -157  -174  -181  -190  -207  -219  -213  -219  -238  -167  52  356  771  1445  2408  3436  4073  3809  2378  77  -2182  -3434  -3383  -2462  -1334  -495  -144  -173  -320  -416  -434  -401  -353  -323  -319  -315  -286  -230  -169  -131  -117  -97  -58  -23  0  30  65  89  94  99  141  238  362  449  479  477  469  466  477  516  584  663  735  793  827  828  804  781  772  770  762  746  731  726  722  693  619  515  416  328  229  114  1  -89  -165  -229  -262  -246  -193  -133  -86  -34  45  141  214  248  258  257  251  238  220  205  196  182  148  99  57  31  20  25  44  67  81  86  84  78  73  79  109  158  207  237  245  238  224  210  200  195  194  197  202  201  179  125  61  24  14  3  -22  -64  -119  -177  -233  -290  -335  -338  -301  -250  -213  -217  -257  -300  -324  -324  -308  -287  -269  -266  -284  -315  -342  -359  -372  -388  -401  -399  -385  -355  -311  -275  -263  -266  -270  -272  -274  -275  -268  -248  -219  -192  -168  -137  -102  -85  -87  -68  17  183  388  559  656  685  687  696  716  745  780  803  763  610  368  121  -95  -288  -430  -490  -485  -457  -433  -419  -416  -429  -440  -389  -229  -8  235  621  1329  2356  3387  3844  3179  1308  -1151  -3116  -3798  -3271  -2187  -1189  -610  -437  -467  -527  -561  -567  -533  -467  -407  -371  -349  -331  -311  -284  -249  -218  -202  -200  -208  -217  -201  -132  -17  91  151  164  158  151  144  141  154  209  322  468  584  637  659  708  804  912  989  1025  1037  1039  1036  1018  975  912  854  811  757  650  461  223  12  -131  -230  -328  -444  -568  -680  -772  -840  -892  -946  -1020  -1101  -1151  -1151  -1120  -1087  -1066  -1049  -1031  -1007  -975  -940  -919  -924  -943  -939  -877  -758  -619  -520  -499  -523  -532  -517  -480  -413  -317  -216  -139  -88  -44  -8  2  -12  -39  -69  -96  -107  -90  -47  0  36  56  74  90  96  90  78  78  99  132  155  162  163  166  171  168  162  175  206  227  229  223  220  220  220  217  210  196  177  154  132  118  111  110  115  132  175  252  343  410  438  437  412  362  301  256  242  246  254  258  261  266  276  291  306  314  307  292  274  256  239  220  184  99  -68  -317  -578  -750  -805  -793  -770  -757  -752  -745  -735  -724  -722  -730  -706  -615  -479  -253  233  1090  2136  2891  2807  1570  -618  -2932  -4382  -4515  -3587  -2244  -1124  -545  -413  -437  -428  -366  -277  -181  -104  -54  -7  68  164  235  263  279  320  385  442  471  475  476  484  497  514  545  600  672  744  800  831  840  836  834  844  878  928  973  1008  1058  1144  1245  1319  1350  1355  1351  1339  1307  1256  1203  1157  1110  1048  959  832  660  448  239  92  17  -35  -110  -212  -305  -356  -369  -355  -320  -272  -239  -262  -350  -450  -507  -519  -497  -449  -399  -367  -352  -345  -341  -339  -339  -344  -346  -320  -242  -128  -27  28  47  49  38  11  -31  -66  -64  -14  51  84  74  53  45  52  61  65  70  84  95  58  -59  -215  -316  -334  -301  -243  -170  -94  -28  6  0  -24  -26  8  48  63  64  70  81  82  63  20  -29  -63  -70  -52  -19  10  31  49  62  65  64  79  124  189  246  295  359  444  518  559  573  577  584  581  525  381  173  -41  -225  -359  -429  -443  -423  -386  -346  -318  -318  -360  -428  -447  -314  -24  325  736  1349  2223  3162  3716  3333  1736  -634  -2720  -3646  -3289  -2127  -894  -172  -19  -122  -228  -280  -294  -276  -241  -223  -242  -269  -262  -214  -153  -114  -110  -122  -134  -144  -155  -165  -164  -144  -107  -63  -28  -9  6  44  104  160  196  212  225  250  291  339  399  492  603  682  707  703  694  693  701  717  733  746  757  768  767  732  636  476  268  33  -172  -292  -330  -343  -375  -427  -474  -497  -505  -517  -542  -570  -592  -601  -603  -607  -621  -642  -658  -661  -656  -645  -628  -598  -562  -536  -533  -548  -566  -573  -563  -538  -505  -475  -450  -429  -413  -404  -404  -410  -412  -394  -345  -277  -231  -240  -286  -348  -409  -449  -461  -456  -443  -426  -409  -397  -394  -394  -394  -398  -407  -415  -413  -397  -375  -362  -352  -333  -313  -306  -308  -321  -342  -354  -342  -306  -257  -207  -165  -138  -120  -100  -77  -63  -58  -45  -4  64  136  180  188  172  146  131  169  292  460  582  621  606  574  539  508  490  485  461  368  173  -81  -310  -461  -531  -542  -531  -531  -561  -631  -734  -822  -808  -624  -262  187  643  1191  2004  3049  3934  4040  2941  774  -1663  -3329  -3709  -3048  -1954  -1000  -467  -290  -282  -308  -317  -310  -296  -278  -260  -250  -259  -280  -290  -267  -209  -136  -69  -24  -2  6  14  28  45  59  79  120  175  222  257  294  343  415  511  613  689  724  739  785  914  1108  1278  1362  1383  1387  1389  1383  1363  1336  1301  1231  1102  946  826  745  656  520  351  202  100  41  9  -20  -67  -135  -211  -278  -320  -336  -343  -354  -354  -309  -223  -153  -131  -140  -151  -159  -161  -144  -96  -29  26  61  84  96  96  96  111  149  191  230  273  312  336  349  368  406  459  505  528  533  525  506  475  439  398  352  307  285  292  304  312  332  353  345  300  237  185  173  209  274  332  362  361  326  261  183  117  68  16  -44  -90  -101  -75  -25  21  47  53  32  -22  -90  -153  -193  -199  -185  -174  -172  -167  -147  -110  -61  0  80  179  284  365  404  416  429  458  499  532  514  399  174  -115  -397  -593  -655  -603  -508  -441  -419  -422  -449  -517  -612  -664  -618  -465  -182  319  1120  2162  3146  3580  3007  1300  -1103  -3250  -4276  -4046  -3063  -1936  -1073  -636  -542  -578  -605  -603  -592  -588  -606  -644  -669  -660  -633  -615  -611  -613  -613  -608  -588  -537  -458  -380  -323  -280  -243  -213  -175  -105  -9  78  139  184  234  301  390  487  570  627  672  722  772  805  817  820  837  869  888  863  793  690  580  497  441  377  270  107  -78  -234  -348  -429  -459  -440  -407  -409  -490  -623  -730  -773  -778  -776  -774  -756  -714  -663  -622  -581  -517  -421  -315  -237  -203  -197  -200  -210  -230  -253  -261  -246  -223  -214  -215  -209  -193  -175  -155  -137  -119  -98  -66  -25  8  26  34  38  34  13  -18  -45  -62  -71  -71  -65  -56  -50  -52  -60  -69  -77  -79  -72  -59  -46  -39  -44  -62  -91  -131  -164  -176  -171  -167  -185  -238  -296  -311  -275  -225  -188  -166  -150  -128  -94  -64  -46  -33  -9  25  61  114  204  306  388  460  524  564  582  594  604  595  536  404  206  -24  -244  -398  -465  -472  -452  -431  -424  -442  -470  -462  -378  -200  63  347  627  1041  1772  2771  3619  3758  2803  778  -1650  -3437  -3959  -3360  -2215  -1127  -453  -172  -53  57  155  201  204  193  180  160  130  92  52  30  66  189  357  480  522  517  499  477  460  463  499  562  629  670  680  675  675  700  763  863  995  1157  1305  1371  1354  1297  1233  1200  1218  1255  1279  1284  1258  1187  1090  1008  945  873  785  697  616  517  358  118  -156  -378  -493  -533  -552  -572  -597  -625  -648  -664  -693  -753  -836  -906  -942  -946  -944  -948  -961  -980  -999  -1013  -1019  -1016  -999  -973  -948  -935  -934  -939  -941  -923  -871  -791  -717  -677  -667  -665  -656  -643  -625  -599  -568  -546  -536  -534  -537  -543  -550  -549  -530  -500  -468  -431  -398  -380  -374  -372  -368  -363  -364  -387  -439  -488  -488  -443  -392  -352  -330  -332  -351  -375  -392  -397  -398  -397  -387  -371  -358  -350  -348  -352  -354  -329  -247  -116  7  73  86  92  126  190  262  328  403  507  619  695  730  753  779  787  708  491  199  -25  -119  -131  -117  -95  -66  -41  -22  2  51  129  191  201  240  418  811  1529  2609  3744  4321  3784  1986  -552  -2715  -3569  -3099  -1969  -887  -279  -155  -224  -239  -154  -31  58  95  101  101  106  117  139  170  190  200  214  239  264  277  275  265  244  202  148  123  167  275  397  483  532  572  615  655  690  727  782  853  915  953  973  995  1032  1070  1093  1098  1093  1083  1074  1061  1029  965  866  740  607  474  334  193  70  -41  -143  -217  -253  -263  -267  -275  -291  -313  -327  -330  -328  -329  -332  -333  -331  -330  -330  -327  -316  -303  -293  -285  -276  -260  -228  -183  -135  -97  -58  8  99  165  177  156  135  117  87  40  -11  -48  -66  -69  -74  -102  -147  -182  -192  -191  -196  -218  -245  -257  -257  -253  -250  -250  -256  -264  -269  -273  -286  -309  -318  -292  -236  -177  -143  -149  -176  -192  -183  -153  -124  -121  -164  -261  -381  -468  -506  -523  -531  -516  -478  -441  -424  -422  -426  -430  -431  -422  -393  -327  -217  -85  18  70  78  67  46  20  3  20  93  203  279  232  17  -288  -523  -612  -612  -588  -564  -545  -540  -558  -583  -558  -443  -263  -49  204  488  873  1552  2579  3649  4208  3758  2151  -191  -2349  -3469  -3353  -2442  -1381  -642  -342  -313  -345  -350  -325  -276  -212  -169  -170  -185  -174  -127  -64  -19  -5  -6  -4  5  29  72  126  178  219  247  268  304  358  409  446  484  535  596  655  698  719  727  741  777  829  889  965  1049  1097  1077  996  893  805  748  706  644  536  399  265  151  53  -46  -159  -273  -375  -472  -560  -624  -658  -675  -679  -659  -621  -601  -628  -694  -762  -801  -811  -807  -794  -769  -727  -683  -660  -662  -677  -695  -711  -723  -729  -731  -723  -698  -660  -620  -575  -506  -413  -328  -282  -274  -287  -310  -335  -355  -368  -373  -362  -331  -292  -264  -254  -255  -258  -259  -259  -256  -242  -209  -168  -144  -141  -151  -164  -171  -171  -174  -203  -268  -344  -395  -413  -412  -392  -346  -285  -236  -214  -207  -201  -195  -199  -214  -217  -204  -178  -135  -78  -20  37  104  185  273  352  408  448  496  570  654  713  724  672  547  376  216  109  56  40  48  63  68  55  20  -38  -107  -160  -136  30  308  672  1263  2164  3152  3746  3426  1945  -380  -2645  -3886  -3818  -2854  -1654  -795  -425  -278  -164  -78  20  156  272  320  312  293  301  332  366  389  396  395  409  435  459  481  516  568  626  678  724  772  816  844  851  846  836  832  853  926  1047  1170  1250  1287  1315  1367  1438  1498  1529  1537  1528  1500  1441  1351  1250  1152  1042  915  793  694  598  479  337  199  83  -14  -107  -193  -256  -305  -378  -499  -627  -707  -725  -708  -685  -668  -659  -657  -664  -678  -695  -707  -710  -708  -702  -701  -709  -719  -718  -706  -697  -700  -696  -649  -566  -505  -526  -642  -785  -841  -785  -702  -663  -663  -670  -670  -665  -662  -659  -640  -588  -521  -469  -440  -428  -425  -422  -409  -387  -372  -379  -415  -467  -504  -503  -465  -411  -358  -316  -283  -256  -234  -219  -212  -209  -204  -199  -201  -218  -249  -281  -303  -312  -312  -310  -315  -317  -303  -262  -197  -116  -13  114  231  298  337  405  509  584  594  571  532  434  245  30  -118  -182  -201  -205  -199  -188  -185  -222  -319  -449  -559  -563  -380  -64  291  776  1557  2643  3721  4193  3561  1756  -699  -2791  -3668  -3281  -2208  -1091  -333  -40  -59  -136  -138  -91  -49  -31  -35  -47  -55  -49  -22  22  72  112  136  156  191  235  266  288  337  439  562  644  667  657  641  632  638  663  702  737  758  773  802  864  955  1039  1086  1101  1104  1103  1089  1042  966  891  836  778  693  598  521  459  381  265  131  15  -63  -104  -116  -118  -129  -164  -209  -244  -271  -315  -378  -433  -464  -480  -493  -507  -528  -561  -595  -598  -553  -482  -415  -358  -306  -268  -252  -252  -255  -262  -285  -335  -385  -395  -362  -300  -214  -141  -121  -147  -185  -204  -199  -201  -227  -263  -295  -309  -316  -342  -398  -468  -528  -561  -571  -576  -578  -560  -495  -390  -288  -225  -196  -186  -182  -177  -166  -145  -118  -94  -77  -59  -32  5  40  50  25  -22  -72  -105  -109  -79  -9  92  200  285  333  350  352  362  406  506  635  729  761  757  735  677  546  336  108  -51  -124  -158  -190  -216  -234  -258  -314  -384  -393  -331  -275  -238  -176  -49  283  991  2047  3152  3787  3438  1926  -398  -2675  -3990  -4062  -3291  -2295  -1561  -1233  -1133  -1076  -1008  -941  -886  -846  -822  -815  -817  -801  -735  -628  -532  -484  -478  -484  -469  -413  -324  -230  -131  0  145  250  289  301  330  383  442  497  549  590  627  674  733  801  882  984  1099  1212  1299  1343  1346  1315  1242  1117  960  826  749  697  612  480  341  233  161  118  86  38  -40  -134  -214  -261  -278  -280  -282  -298  -326  -365  -425  -507  -596  -668  -703  -692  -633  -544  -462  -407  -376  -368  -386  -419  -450  -463  -456  -440  -423  -404  -383  -354  -314  -264  -215  -181  -164  -157  -157  -166  -182  -190  -174  -134  -92  -65  -54  -45  -33  -43  -85  -102  -44  46  109  140  148  125  55  -37  -104  -127  -124  -118  -115  -111  -100  -90  -88  -96  -106  -111  -112  -107  -94  -77  -64  -59  -61  -66  -71  -63  -27  44  137  231  305  360  417  494  575  627  646  644  626  568  429  197  -58  -242  -330  -367  -396  -441  -494  -530  -542  -555  -586  -563  -404  -167  38  275  776  1708  2892  3782  3748  2406  3  -2451  -3877  -3912  -2909  -1561  -542  -133  -127  -183  -163  -109  -58  -19  9  37  81  146  214  258  263  234  180  97  1  -50  -17  84  193  254  259  234  211  209  223  239  256  270  274  268  266  293  368  479  592  687  758  803  827  832  835  858  902  934  929  881  791  670  548  461  416  372  281  151  29  -75  -176  -258  -304  -328  -346  -354  -345  -326  -309  -297  -281  -255  -220  -184  -156  -135  -112  -85  -48  5  48  59  50  20  -43  -107  -121  -72  11  73  80  57  40  36  36  34  33  45  68  85  92  123  182  242  282  290  268  231  179  130  102  94  93  95  106  133  169  198  220  244  266  272  255  226  194  154  106  70  52  39  22  15  30  56  79  97  111  121  125  126  136  166  221  289  362  449  540  602  616  602  581  561  527  449  290  39  -242  -459  -586  -654  -684  -692  -693  -697  -709  -721  -716  -693  -642  -503  -251  66  498  1209  2195  3069  3222  2221  105  -2432  -4274  -4705  -3896  -2559  -1399  -774  -619  -660  -697  -686  -656  -630  -605  -574  -537  -495  -434  -347  -245  -150  -88  -65  -63  -60  -48  -24  9  43  67  82  99  120  131  129  134  170  236  315  392  461  513  547  573  597  631  691  781  875  933  930  870  793  732  700  685  662  618  557  484  394  284  170  58  -51  -144  -206  -241  -274  -318  -368  -416  -466  -519  -558  -576  -584  -584  -576  -569  -594  -683  -811  -913  -962  -980  -987  -975  -935  -876  -821  -776  -739  -708  -678  -642  -596  -539  -493  -477  -483  -492  -499  -495  -470  -426  -360  -271  -180  -120  -108  -134  -181  -227  -252  -255  -252  -258  -279  -306  -326  -325  -303  -268  -239  -226  -224  -226  -231  -237  -241  -235  -221  -210  -206  -205  -200  -192  -184  -174  -162  -140  -97  -36  22  60  93  153  250  360  451  517  570  612  640  654  658  651  633  612  584  515  365  143  -80  -242  -326  -348  -327  -273  -201  -138  -99  -100  -154  -211  -161  31  354  890  1735  2800  3779  4176  3507  1697  -699  -2720  -3583  -3217  -2174  -1129  -485  -253  -222  -223  -210  -182  -139  -92  -64  -56  -56  -51  -38  -24  -9  22  89  181  260  304  323  330  332  333  331  325  319  339  418  557  699  780  795  779  766  786  860  972  1076  1142  1174  1184  1186  1188  1190  1181  1147  1091  1019  926  808  698  633  592  527  407  235  38  -124  -217  -271  -349  -459  -551  -603  -616  -591  -541  -495  -469  -454  -436  -412  -397  -403  -428  -453  -459  -447  -427  -384  -296  -186  -108  -83  -87  -96  -101  -104  -106  -106  -105  -105  -107  -112  -115  -109  -98  -103  -127  -150  -155  -149  -142  -137  -136  -146  -171  -201  -216  -210  -198  -191  -189  -195  -214  -241  -260  -247  -191  -113  -47  -4  27  51  70  86  98  100  92  77  61  40  10  -20  -45  -68  -89  -93  -64  6  99  182  243  288  311  318  332  374  438  496  537  568  590  589  536  413  244  68  -86  -206  -286  -328  -344  -347  -343  -334  -316  -285  -235  -176  -121  -55  75  370  1047  2246  3628  4486  4219  2602  -8  -2545  -3841  -3605  -2447  -1151  -281  -9  -80  -167  -166  -125  -90  -72  -69  -84  -111  -125  -108  -67  -23  17  69  127  164  174  200  286  422  548  614  609  557  503  485  517  580  633  658  664  669  678  691  714  758  834  928  1010  1054  1045  991  927  875  823  774  732  670  554  391  233  112  12  -94  -213  -342  -474  -599  -697  -754  -776  -785  -803  -835  -868  -883  -873  -853  -838  -833  -831  -828  -828  -836  -837  -809  -730  -623  -535  -494  -480  -471  -471  -497  -545  -570  -538  -486  -460  -466  -485  -506  -521  -528  -532  -541  -558  -577  -597  -621  -639  -633  -602  -561  -530  -515  -517  -552  -625  -691  -684  -626  -593  -603  -620  -628  -631  -636  -634  -600  -525  -455  -440  -469  -493  -487  -448  -393  -351  -332  -325  -310  -272  -222  -184  -153  -104  -23  70  147  197  236  285  348  405  441  459  437  321  92  -163  -327  -371  -354  -332  -319  -315  -322  -326  -294  -209  -92  31  141  311  731  1490  2459  3301  3483  2590  711  -1563  -3362  -4016  -3535  -2433  -1261  -390  33  92  11  -37  -26  14  56  82  92  105  135  172  199  209  208  207  207  202  196  212  275  380  486  561  609  642  659  665  673  686  692  692  719  795  911  1038  1151  1233  1290  1338  1382  1407  1400  1373  1344  1315  1278  1215  1111  979  839  692  546  410  266  104  -37  -129  -190  -248  -292  -291  -248  -201  -175  -168  -167  -166  -173  -202  -258  -325  -378  -401  -400  -382  -357  -328  -291  -243  -195  -159  -135  -120  -116  -124  -141  -157  -164  -165  -166  -169  -172  -170  -153  -118  -80  -57  -55  -87  -143  -196  -253  -341  -434  -465  -413  -334  -289  -289  -307  -323  -343  -385  -443  -486  -492  -463  -422  -393  -394  -424  -466  -496  -508  -508  -498  -475  -442  -403  -348  -276  -205  -148  -93  -10  106  217  280  307  331  366  394  394  350  254  123  -16  -137  -224  -283  -322  -339  -339  -338  -336  -331  -332  -347  -387  -405  -315  -118  122  456  1062  2034  3212  4094  4000  2560  95  -2409  -3838  -3776  -2695  -1377  -430  -73  -89  -147  -131  -82  -25  39  101  140  151  148  144  143  151  177  220  272  317  342  348  346  344  347  351  356  362  372  390  428  497  587  673  736  790  849  907  956  992  1015  1035  1060  1090  1118  1139  1146  1120  1040  924  827  779  762  746  690  557  369  184  8  -185  -375  -509  -567  -571  -560  -564  -596  -645  -684  -700  -701  -698  -689  -667  -641  -630  -646  -671  -667  -600  -490  -395  -347  -333  -333  -343  -365  -382  -369  -331  -288  -247  -207  -178  -170  -177  -175  -155  -137  -126  -99  -39  41  106  138  158  179  199  217  229  227  210  185  161  129  82  31  -3  -17  -19  -12  3  24  41  51  57  58  55  52  62  98  155  205  230  237  239  252  285  338  391  426  459  520  613  702  747  716  583  368  136  -81  -275  -413  -490  -535  -546  -523  -510  -525  -544  -561  -561  -509  -411  -304  -212  -89  253  1047  2253  3446  4008  3420  1556  -1031  -3257  -4253  -3939  -2820  -1579  -745  -438  -444  -516  -550  -541  -506  -460  -426  -413  -414  -417  -418  -411  -395  -368  -332  -292  -254  -222  -205  -203  -207  -206  -196  -168  -115  -39  42  116  184  267  377  510  639  732  783  824  887  967  1030  1060  1065  1051  1030  1017  1014  987  901  757  601  470  362  259  162  80  4  -88  -202  -318  -419  -501  -567  -621  -673  -729  -789  -838  -863  -863  -841  -792  -718  -646  -604  -589  -587  -590  -582  -547  -492  -439  -401  -371  -344  -312  -272  -220  -175  -160  -162  -152  -134  -127  -131  -131  -118  -95  -76  -71  -72  -72  -70  -68  -71  -76  -79  -71  -65  -82  -106  -100  -72  -49  -36  -25  -11  8  32  57  79  92  74  5  -96  -183  -227  -234  -226  -218  -205  -178  -146  -112  -57  26  127  230  321  404  481  535  566  591  608  589  513  385  239  112  10  -92  -201  -285  -324  -337  -343  -352  -371  -420  -501  -548  -477  -273  12  281  522  921  1687  2744  3629  3702  2562  358  -2118  -3779  -4005  -3082  -1767  -666  -56  116  120  130  155  181  205  210  222  309  470  622  716  765  794  821  845  860  871  880  887  888  885  895  930  993  1066  1123  1149  1152  1136  1093  1030  988  1024  1167  1366  1510  1545  1497  1420  1354  1314  1299  1301  1307  1295  1233  1114  970  844  743  635  492  321  147  -26  -205  -349  -422  -439  -440  -446  -458  -489  -564  -699  -857  -960  -960  -869  -749  -664  -629  -618  -608  -600  -599  -600  -592  -566  -529  -502  -494  -496  -498  -500  -507  -526  -550  -568  -565  -532  -486  -455  -444  -437  -416  -375  -322  -280  -269  -285  -290  -249  -174  -110  -90  -105  -130  -154  -176  -190  -196  -196  -188  -166  -135  -108  -87  -73  -64  -56  -49  -47  -49  -51  -42  -15  19  54  100  174  258  330  392  448  475  449  374  262  104  -86  -254  -358  -421  -491  -584  -674  -731  -752  -762  -789  -866  -993  -1077  -1027  -864  -622  -323  -49  256  839  1758  2687  3087  2464  658  -1798  -3818  -4559  -3990  -2680  -1358  -568  -388  -488  -559  -537  -470  -395  -322  -258  -205  -147  -80  -26  -4  -5  -15  -25  -33  -41  -46  -29  24  100  160  182  157  81  -22  -102  -119  -54  89  260  405  527  638  710  735  748  789  861  945  1017  1061  1078  1077  1055  998  920  860  834  822  803  750  627  433  232  89  -1  -76  -145  -216  -299  -387  -465  -528  -575  -604  -619  -640  -689  -779  -888  -968  -975  -886  -722  -558  -467  -449  -460  -463  -445  -412  -375  -331  -278  -231  -205  -202  -215  -231  -232  -224  -218  -206  -171  -116  -61  -26  -16  -19  -23  -27  -28  -24  -17  -13  -15  -17  -5  32  85  125  139  135  121  96  63  31  16  29  66  119  170  203  212  201  169  130  114  140  202  288  393  496  566  599  612  601  555  487  438  430  434  378  204  -45  -263  -394  -452  -471  -478  -484  -488  -492  -498  -508  -520  -526  -485  -354  -127  234  877  1893  3070  3891  3769  2373  -1  -2393  -3758  -3736  -2763  -1569  -704  -328  -266  -290  -294  -265  -220  -194  -209  -247  -270  -253  -205  -155  -115  -79  -34  24  74  99  108  117  130  153  202  292  399  474  498  495  489  487  488  503  542  598  640  662  682  706  725  735  743  751  740  662  477  204]
01034110-cbe2-11eb-8080-808080808080,Sun Jun 13 00:55:10 UTC 2021,697859ae582c,NSR,66,NONE,128.4.17,2.4.0,Sense,[25925  26053  25965  25394  24273  22848  21381  19934  18494  17097  15792  14549  13266  11893  10449  9013  7716  6598  5524  4358  3107  1874  771  -159  -985  -1818  -2727  -3656  -4493  -5229  -5925  -6620  -7337  -8064  -8733  -9312  -9837  -10347  -10882  -11473  -12088  -12671  -13204  -13681  -14099  -14446  -14727  -14965  -15187  -15439  -15783  -16232  -16712  -17108  -17352  -17514  -17726  -18028  -18346  -18597  -18756  -18861  -18973  -19123  -19280  -19407  -19499  -19563  -19607  -19635  -19653  -19671  -19704  -19765  -19844  -19916  -19993  -20107  -20251  -20389  -20490  -20540  -20530  -20463  -20360  -20254  -20165  -20104  -20073  -20057  -20021  -19924  -19732  -19451  -19103  -18678  -18123  -17370  -16445  -15566  -15028  -15032  -15699  -16929  -18217  -19004  -19123  -18647  -17723  -16703  -15975  -15596  -15384  -15212  -15055  -14914  -14773  -14595  -14366  -14131  -13943  -13788  -13592  -13323  -13035  -12792  -12595  -12422  -12275  -12158  -12019  -11758  -11359  -10908  -10495  -10178  -10002  -9953  -9963  -9979  -9974  -9940  -9850  -9672  -9410  -9119  -8838  -8577  -8357  -8195  -8059  -7901  -7714  -7538  -7397  -7265  -7093  -6865  -6621  -6426  -6308  -6229  -6130  -5981  -5807  -5665  -5569  -5483  -5363  -5211  -5071  -4967  -4888  -4823  -4778  -4755  -4749  -4754  -4755  -4732  -4673  -4596  -4532  -4492  -4469  -4446  -4397  -4299  -4150  -3980  -3810  -3633  -3444  -3259  -3095  -2958  -2860  -2798  -2739  -2634  -2466  -2279  -2130  -2015  -1894  -1731  -1519  -1289  -1108  -1012  -972  -937  -880  -801  -722  -664  -622  -570  -489  -391  -291  -180  -39  105  197  222  215  212  229  270  366  560  810  993  1061  1071  1085  1105  1112  1120  1174  1286  1421  1565  1748  1972  2166  2270  2306  2328  2356  2380  2406  2453  2533  2644  2754  2827  2856  2873  2904  2945  2973  2980  2984  3013  3086  3199  3334  3477  3607  3686  3705  3683  3641  3598  3567  3557  3578  3642  3726  3788  3811  3810  3798  3772  3734  3702  3693  3706  3730  3779  3890  4054  4199  4275  4289  4268  4223  4157  4081  4004  3928  3864  3814  3768  3692  3570  3435  3338  3293  3281  3282  3280  3263  3229  3178  3120  3102  3175  3331  3538  3790  4082  4470  5118  6081  7054  7479  6878  5157  2864  999  290  734  1797  2839  3450  3620  3572  3485  3404  3332  3284  3265  3268  3294  3341  3392  3430  3451  3457  3459  3473  3509  3563  3617  3651  3661  3651  3624  3589  3560  3545  3544  3564  3619  3702  3778  3819  3832  3842  3855  3859  3840  3784  3702  3627  3583  3553  3508  3441  3368  3302  3242  3183  3130  3082  3021  2930  2822  2716  2605  2472  2310  2111  1848  1517  1177  898  686  522  403  309  188  10  -190  -343  -422  -458  -485  -510  -530  -553  -597  -655  -701  -714  -699  -668  -633  -603  -568  -508  -415  -299  -192  -125  -91  -51  15  82  110  90  48  16  6  15  50  127  242  373  486  560  595  605  605  600  576  526  468  430  402  341  221  62  -133  -411  -791  -1222  -1618  -1914  -2090  -2183  -2256  -2329  -2393  -2453  -2518  -2586  -2652  -2715  -2768  -2798  -2806  -2802  -2796  -2789  -2783  -2777  -2759  -2714  -2645  -2569  -2488  -2410  -2353  -2310  -2251  -2169  -2093  -2033  -1974  -1907  -1843  -1793  -1760  -1744  -1741  -1744  -1733  -1675  -1558  -1415  -1294  -1218  -1185  -1185  -1196  -1205  -1210  -1202  -1164  -1078  -944  -785  -633  -499  -390  -319  -286  -260  -212  -145  -90  -63  -58  -83  -162  -291  -427  -528  -585  -607  -607  -598  -587  -573  -545  -500  -455  -431  -424  -402  -326  -188  -29  157  549  1327  2391  3339  3651  2907  1092  -1194  -2994  -3642  -3131  -1920  -639  207  529  571  555  537  516  492  467  435  402  387  402  429  443  441  436  448  520  698  929  1091  1149  1190  1302  1473  1621  1693  1709  1720  1763  1853  1988  2130  2227  2264  2268  2275  2309  2365  2423  2474  2525  2556  2541  2498  2467  2459  2464  2468  2463  2436  2376  2275  2134  1985  1856  1731  1579  1420  1299  1223  1161  1079  962  817  647  461  285  143  28  -70  -152  -208  -237  -262  -313  -398  -493  -577  -647  -705  -751  -792  -832  -870  -892  -884  -840  -777  -726  -703  -700  -706  -714  -721  -726  -720  -677  -576  -438  -325  -273  -276  -315  -378  -445  -489  -492  -467  -440  -426  -414  -387  -328  -254  -216  -250  -331  -400  -427  -429  -428  -428  -417  -393  -369  -366  -386  -418  -444  -458  -459  -441  -391  -324  -274  -252  -247  -250  -270  -315  -363  -385  -384  -376  -363  -351  -355  -376  -393  -377  -330  -272  -208  -143  -99  -111  -187  -297  -377  -384  -309  -182  -60  4  4  -36  -83  -112  -118  -114  -114  -124  -145  -185  -261  -363  -461  -545  -617  -656  -642  -570  -460  -354  -292  -279  -308  -364  -404  -352  -158  150  488  832  1305  2047  2959  3641  3559  2358  237  -1966  -3300  -3367  -2469  -1270  -338  118  240  269  305  329  333  329  323  311  293  276  270  289  342  414  470  494  494  485  476  473  489  533  594  644  675  697  712  713  701  688  680  677  676  683  704  739  774  800  815  822  833  863  914  976  1028  1060  1075  1082  1084  1082  1078  1075  1067  1041  979  893  812  737  644  525  376  192  -11  -208  -379  -516  -621  -728  -871  -1019  -1122  -1160  -1109  -983  -872  -847  -901  -992  -1080  -1152  -1206  -1232  -1221  -1173  -1096  -1012  -957  -942  -951  -959  -943  -888  -811  -755  -737  -749  -775  -805  -826  -817  -774  -721  -684  -674  -679  -687  -692  -694  -695  -697  -710  -732  -755  -773  -780  -773  -760  -748  -733  -710  -680  -647  -606  -546  -473  -409  -376  -372  -378  -376  -356  -316  -262  -195  -123  -69  -48  -56  -71  -80  -85  -89  -92  -80  -44  8  57  104  158  211  243  249  238  215  181  146  122  113  113  123  146  175  193  190  174  165  180  229  314  418  505  552  568  574  576  563  519  427  293  156  53  -19  -92  -163  -209  -219  -211  -207  -220  -253  -304  -370  -429  -429  -332  -164  36  246  465  812  1490  2493  3495  3989  3504  1915  -275  -2134  -2940  -2622  -1614  -528  151  325  238  145  133  189  283  370  415  423  421  437  469  488  485  499  552  625  690  735  755  759  757  755  755  757  762  773  796  826  845  845  828  801  759  706  658  630  621  628  650  687  735  777  803  813  814  813  808  796  780  768  764  764  767  771  771  752  695  594  472  347  214  79  -27  -106  -218  -403  -613  -763  -835  -864  -868  -860  -874  -924  -972  -996  -1005  -1013  -1022  -1031  -1038  -1039  -1018  -961  -874  -790  -730  -694  -679  -676  -670  -660  -653  -652  -657  -670  -695  -736  -773  -773  -735  -692  -666  -656  -662  -688  -730  -770  -786  -774  -752  -743  -747  -755  -763  -771  -776  -761  -708  -625  -550  -511  -504  -513  -519  -503  -443  -341  -238  -186  -199  -252  -306  -334  -337  -332  -335  -349  -358  -357  -365  -390  -409  -400  -367  -331  -303  -279  -259  -254  -266  -288  -311  -315  -274  -177  -55  29  44  6  -52  -103  -131  -121  -61  30  114  169  193  196  190  183  181  186  194  198  207  229  263  284  283  271  265  266  270  274  281  292  303  308  323  388  537  731  880  945  956  951  940  920  898  874  832  757  650  531  423  324  213  101  32  20  47  78  85  63  23  -36  -111  -179  -207  -148  10  241  580  1171  2087  3142  3863  3698  2344  79  -2191  -3506  -3540  -2636  -1426  -494  -64  31  37  58  93  126  143  127  84  46  46  93  161  209  225  224  219  203  167  118  76  53  45  60  112  198  296  381  433  447  428  398  393  422  456  477  491  515  556  615  675  719  745  758  763  765  763  758  752  757  795  879  969  1007  989  955  914  838  733  644  596  575  548  496  426  360  270  110  -90  -234  -278  -260  -228  -211  -234  -312  -418  -498  -532  -537  -535  -527  -520  -515  -515  -517  -519  -521  -516  -493  -454  -406  -357  -311  -269  -235  -209  -190  -177  -167  -157  -148  -134  -110  -83  -60  -36  -4  35  67  69  45  13  -23  -66  -116  -177  -233  -257  -240  -190  -126  -69  -31  -13  -7  -7  -10  -12  -11  -4  7  11  -9  -44  -69  -79  -85  -91  -97  -104  -119  -152  -203  -261  -311  -351  -382  -411  -438  -462  -481  -498  -511  -520  -524  -510  -460  -376  -296  -252  -244  -250  -260  -271  -275  -262  -216  -126  -1  122  209  248  255  251  243  222  184  132  73  3  -93  -222  -366  -498  -606  -698  -776  -828  -852  -860  -856  -829  -767  -680  -596  -536  -513  -497  -407  -211  59  441  1056  1923  2789  3194  2667  1088  -1035  -2808  -3540  -3127  -2024  -908  -235  -33  -61  -102  -106  -115  -136  -150  -160  -180  -211  -247  -290  -338  -359  -278  -22  332  589  660  614  544  495  470  457  463  494  542  580  582  554  527  512  500  482  457  432  426  459  534  645  762  837  857  851  849  865  891  911  921  923  921  914  894  864  836  817  786  699  523  294  104  -3  -62  -130  -246  -389  -504  -565  -596  -631  -689  -766  -841  -895  -929  -951  -963  -966  -964  -961  -963  -973  -996  -1031  -1069  -1095  -1097  -1076  -1030  -962  -888  -826  -789  -779  -783  -773  -720  -620  -501  -400  -341  -321  -316  -312  -304  -296  -294  -294  -296  -295  -290  -279  -258  -230  -198  -172  -159  -154  -156  -165  -182  -196  -189  -160  -120  -67  4  81  137  159  160  152  146  151  185  254  329  381  406  427  451  466  458  426  385  354  339  333  334  345  362  375  381  379  370  354  332  315  311  315  313  298  276  259  254  257  263  273  294  344  447  597  754  882  971  1018  1031  1020  982  908  798  657  492  304  91  -113  -248  -302  -304  -281  -247  -218  -205  -217  -254  -325  -412  -420  -268  -11  250  495  815  1421  2412  3507  4127  3716  2072  -306  -2367  -3268  -2929  -1856  -737  -85  50  -43  -128  -145  -115  -56  23  102  160  193  217  243  255  245  236  247  261  263  256  251  258  274  287  295  306  324  352  394  447  512  585  649  684  691  689  706  758  829  886  919  945  972  991  997  996  992  985  973  961  967  997  1032  1045  1015  938  826  707  604  518  431  313  135  -112  -398  -651  -819  -929  -1046  -1189  -1324  -1416  -1460  -1473  -1472  -1470  -1482  -1516  -1556  -1589  -1612  -1615  -1597  -1563  -1513  -1454  -1399  -1354  -1318  -1289  -1259  -1226  -1190  -1150  -1108  -1075  -1048  -1021  -989  -948  -895  -839  -796  -762  -730  -698  -663  -626  -584  -530  -461  -392  -349  -340  -348  -361  -380  -402  -422  -441  -461  -473  -461  -424  -388  -379  -379  -357  -320  -294  -282  -272  -251  -219  -184  -161  -160  -186  -235  -290  -321  -317  -298  -287  -283  -275  -253  -220  -191  -174  -167  -166  -174  -199  -230  -237  -204  -154  -123  -120  -134  -167  -230  -291  -290  -223  -148  -106  -92  -89  -88  -93  -110  -143  -180  -205  -205  -184  -156  -136  -127  -124  -122  -120  -119  -122  -131  -133  -97  11  192  379  495  534  548  569  587  578  527  433  322  239  197  179  165  134  62  -41  -138  -191  -204  -199  -199  -212  -224  -239  -279  -293  -189  37  330  694  1237  2081  3148  4040  4192  3228  1252  -1023  -2632  -3056  -2467  -1426  -500  35  248  322  373  423  462  490  512  533  562  599  631  653  670  689  707  725  742  752  748  737  725  716  712  711  715  731  753  773  796  832  872  905  929  950  964  969  976  1003  1062  1146  1230  1293  1328  1344  1349  1347  1342  1336  1328  1319  1310  1303  1290  1259  1207  1127  1010  879  776  707  636  531  389  239  132  80  43  -35  -176  -336  -452  -512  -543  -556  -559  -575  -625  -694  -746  -763  -761  -760  -765  -768  -753  -713  -655  -599  -564  -553  -552  -553  -565  -601  -652  -687  -690  -676  -673  -690  -717  -737  -736  -709  -669  -636  -619  -613  -611  -614  -619  -610  -559  -454  -326  -232  -202  -235  -318  -416  -485  -509  -500  -464  -405  -334  -268  -224  -207  -206  -207  -207  -218  -251  -296  -329  -340  -338  -336  -336  -335  -325  -308  -303  -325  -364  -409  -457  -501  -530  -537  -531  -533  -554  -575  -575  -552  -517  -493  -485  -482  -463  -408  -326  -248  -187  -141  -103  -67  -22  30  67  50  -36  -129  -122  -13  106  190  263  352  449  518  550  568  594  633  680  729  775  805  788  694  531  365  246  162  81  2  -52  -65  -36  10  46  60  63  64  62  69  126  257  432  622  856  1252  1952  2883  3685  3879  3080  1289  -906  -2599  -3179  -2683  -1608  -556  82  308  361  400  441  470  493  508  499  471  449  448  459  466  464  460  462  465  461  449  439  445  471  516  572  633  706  784  839  864  896  975  1082  1167  1214  1243  1264  1279  1297  1334  1406  1504  1599  1659  1673  1656  1630  1589  1494  1309  1046  765  514  320  189  98  7  -92  -178  -241  -313  -445  -635  -810  -930  -1049  -1219  -1410  -1563  -1658  -1705  -1720  -1737  -1796  -1889  -1970  -2008  -2001  -1957  -1892  -1828  -1782  -1755  -1741  -1726  -1694  -1647  -1603  -1574  -1548  -1506  -1448  -1385  -1331  -1284  -1236  -1182  -1133  -1098  -1069  -1038  -1005  -968  -923  -883  -860  -851  -837  -805  -762  -725  -696  -652  -573  -478  -413  -404  -443  -498  -538  -549  -537  -512  -483  -462  -460  -478  -510  -539  -556  -564  -558  -519  -430  -317  -226  -177  -162  -163  -167  -169  -165  -153  -130  -100  -72  -54  -46  -48  -59  -75  -91  -97  -75  -12  72  134  154  150  138  123  107  101  109  122  127  115  95  93  120  170  233  296  338  356  358  355  354  355  356  349  329  301  279  266  249  232  237  289  391  525  670  808  925  1009  1065  1097  1098  1057  972  859  733  587  421  270  166  111  86  68  54  49  50  49  47  46  50  68  126  261  480  750  1130  1811  2856  3987  4690  4439  2986  702  -1460  -2588  -2440  -1456  -312  448  660  549  414  362  364  382  404  431  448  439  407  366  330  309  301  302  306  308  307  313  332  357  378  390  394  391  381  368  357  353  360  380  411  445  478  512  540  559  576  611  675  764  854  924  965  980  981  978  972  963  954  951  955  962  962  950  911  832  724  623  545  459  320  131  -51  -177  -256  -320  -386  -453  -517  -571  -612  -641  -655  -658  -660  -672  -693  -719  -748  -773  -779  -754  -709  -667  -639  -620  -604  -590  -580  -572  -557  -522  -450  -344  -254  -219  -227  -249  -264  -273  -282  -293  -303  -315  -331  -350  -372  -391  -403  -406  -403  -408  -422  -430  -418  -400  -397  -407  -419  -426  -439  -475  -536  -604  -663  -711  -749  -772  -779  -776  -773  -777  -788  -806  -838  -885  -937  -982  -1008  -997  -950  -893  -849  -824  -823  -858  -934  -1029  -1097  -1110  -1081  -1043  -1011  -988  -972  -965  -963  -962  -961  -960  -957  -955  -954  -957  -964  -969  -968  -957  -932  -878  -801  -725  -669  -633  -609  -596  -599  -612  -612  -587  -548  -509  -473  -439  -402  -360  -314  -262  -207  -162  -134  -124  -137  -168  -210  -255  -278  -251  -162  -28  110  217  289  332  352  359  364  370  380  397  420  437  420  330  168  -1  -114  -172  -208  -229  -237  -236  -229  -214  -201  -208  -253  -322  -339  -210  40  277  441  679  1255  2263  3421  4145  3843  2302  14  -2021  -3001  -2792  -1838  -779  -30  354  532  647  734  790  834  880  920  940  946  957  982  1012  1041  1076  1135  1205  1255  1279  1302  1339  1377  1407  1424  1427  1426  1427  1428  1434  1452  1483  1515  1535  1546  1553  1559  1574  1605  1645  1676  1687  1680  1655  1623  1595  1566  1518  1449  1364  1241  1063  864  694  564  460  370  279  150  -43  -265  -440  -536  -581  -617  -674  -781  -966  -1202  -1401  -1503  -1538  -1561  -1582  -1567  -1475  -1289  -1034  -763  -538  -394  -321  -294  -295  -303  -290  -241  -169  -107  -71  -57  -43  -11  34  74  94  99  102  106  102  92  86  91  100  106  100  84  64  48  39  36  35  35  35  34  29  19  2  -19  -38  -48  -39  -4  45  85  99  76  11  -73  -135  -170  -208  -254  -278  -256  -207  -165  -147  -156  -199  -278  -363  -413  -418  -395  -360  -325  -295  -265  -226  -173  -117  -91  -122  -176  -209  -217  -215  -212  -208  -197  -174  -137  -95  -61  -39  -21  -5  1  -6  -24  -45  -56  -27  72  223  359  430  431  392  340  280  210  134  59  -24  -134  -271  -396  -465  -479  -473  -483  -528  -592  -642  -667  -673  -669  -651  -611  -549  -480  -407  -286  37  727  1742  2759  3274  2839  1327  -861  -2836  -3778  -3524  -2501  -1327  -488  -120  -46  -43  -21  1  9  6  6  22  55  94  119  127  123  116  110  109  130  184  255  315  345  348  337  332  350  405  516  668  803  888  945  1014  1097  1158  1192  1240  1331  1436  1509  1533  1531  1535  1588  1723  1908  2033  1969  1646  1170  766  551  463  390  283  162  66  1  -55  -122  -212  -326  -442  -531  -603  -693  -812  -946  -1083  -1217  -1328  -1394  -1414  -1412  -1405  -1396  -1387  -1382  -1380  -1366  -1335  -1298  -1262  -1225  -1195  -1169  -1138  -1091  -1018  -921  -821  -753  -730  -734  -747  -760  -773  -780  -777  -763  -740  -710  -668  -605  -535  -484  -466  -475  -495  -514  -523  -526  -529  -531  -526  -507  -481  -461  -460  -479  -512  -550  -575  -574  -548  -509  -476  -458  -451  -427  -367  -283  -209  -162  -136  -123  -120  -125  -139  -161  -185  -205  -229  -268  -314  -348  -363  -365  -361  -352  -335  -310  -280  -247  -221  -222  -250  -271  -259  -217  -158  -82  27  184  354  477  538  564  574  569  545  487  369  206  64  -15  -47  -78  -151  -253  -327  -339  -295  -227  -167  -133  -128  -143  -145  -70  120  378  661  1061  1718  2639  3619  4233  3998  2686  617  -1399  -2567  -2619  -1855  -836  -58  294  353  321  306  316  330  340  347  356  370  387  398  403  409  426  449  466  470  469  475  499  544  606  668  720  771  825  864  877  876  871  872  890  933  991  1040  1064  1067  1062  1059  1061  1074  1102  1135  1158  1168  1174  1187  1209  1232  1249  1268  1284  1285  1259  1203  1135  1083  1050  1001  887  698  486  312  178  66  -32  -122  -210  -300  -404  -513  -611  -693  -757  -793  -803  -803  -800  -794  -791  -808  -845  -882  -906  -916  -908  -870  -797  -713  -646  -605  -579  -556  -533  -516  -511  -511  -511  -504  -487  -460  -429  -400  -365  -327  -308  -307  -309  -308  -306  -306  -308  -314  -331  -367  -416  -459  -485  -501  -516  -534  -547  -548  -534  -524  -523  -520  -512  -507  -511  -523  -544  -573  -604  -626  -639  -652  -668  -675  -659  -618  -567  -533  -523  -525  -528  -529  -533  -543  -557  -568  -573  -579  -589  -585  -523  -379  -194  -51  13  30  53  122  240  371  466  500  478  416  320  183  2  -187  -319  -365  -339  -260  -159  -82  -48  -47  -65  -83  -81  -62  -71  -126  -141  -7  274  623  1049  1688  2612  3641  4314  4075  2638  337  -1916  -3207  -3218  -2303  -1135  -280  82  123  68  23  -7  -36  -61  -74  -77  -68  -44  -11  15  26  26  21  19  27  48  75  92  97  111  152  210  255  273  278  281  284  285  292  309  338  378  431  490  534  549  545  541  563  631  727  811  866  910  951  978  984  979  976  973  939  860  773  701  636  582  534  468  373  253  98  -97  -300  -462  -565  -630  -688  -755  -837  -925  -1000  -1042  -1053  -1042  -1015  -978  -936  -887  -827  -771  -737  -722  -714  -708  -693  -660  -616  -581  -560  -546  -541  -542  -535  -516  -496  -480  -467  -456  -445  -438  -436  -434  -426  -412  -399  -398  -402  -405  -415  -448  -493  -524  -529  -515  -496  -477  -460  -452  -453  -457  -463  -472  -476  -469  -448  -411  -366  -334  -333  -361  -400  -427  -437  -434  -421  -399  -353  -270  -161  -55  10  5  -54  -112  -136  -137  -132  -128  -122  -106  -69  -6  81  191  316  423  481  497  502  515  542  589  659  750  841  912  956  971  962  950  936  878  732  529  355  258  199  122  24  -46  -58  -20  38  93  125  130  96  23  -30  40  255  529  797  1119  1640  2431  3291  3730  3242  1664  -590  -2609  -3589  -3364  -2318  -1080  -190  206  297  303  317  339  344  326  292  248  198  157  144  166  221  300  377  425  442  438  421  393  360  335  323  313  303  301  310  321  319  309  308  319  343  376  411  449  497  555  622  701  807  945  1086  1196  1265  1301  1310  1295  1253  1198  1155  1136  1124  1087  1011  899  767  644  538  433  308  162  20  -101  -209  -320  -428  -506  -559  -614  -679  -740  -778  -783  -763  -741  -732  -729  -730  -740  -767  -806  -837  -848  -839  -807  -757  -705  -664  -638  -624  -617  -616  -621  -625  -622  -606  -580  -556  -546  -543  -523  -466  -386  -324  -298  -296  -307  -334  -378  -427  -457  -449  -400  -330  -276  -255  -262  -287  -326  -372  -405  -409  -384  -341  -295  -262  -246  -246  -269  -324  -389  -414  -370  -282  -208  -176  -176  -188  -205  -217  -209  -157  -56  53  118  110  33  -72  -154  -185  -154  -48  114  266  350  362  328  282  253  249  255  254  222  137  6  -131  -236  -292  -308  -291  -242  -174  -123  -108  -123  -153  -184  -195  -142  -9  163  329  495  775  1350  2270  3297  3926  3648  2280  176  -1828  -2906  -2824  -1969  -929  -141  224  269  212  184  189  206  234  276  316  347  375  419  482  548  593  602  575  521  464  427  419  435  473  534  602  659  700  733  764  789  802  809  840  916  1023  1118  1170  1185  1191  1212  1248  1279  1298  1311  1309  1244  1065  807  582  447  360  271  177  82  -14  -106  -184  -261  -345  -423  -493  -583  -715  -869  -1015  -1147  -1265  -1363  -1429  -1466  -1481  -1483  -1482  -1487  -1501  -1518  -1521  -1487  -1412  -1316  -1221  -1150  -1119  -1119  -1123  -1102  -1040  -957  -896  -877  -886  -908  -934  -949  -932  -871  -787  -722  -696  -698  -711  -728  -735  -706  -623  -513  -433  -403  -406  -436  -492  -544  -540  -476  -402  -355  -339  -351  -389  -438  -476  -493  -496  -490  -481  -482  -508  -545  -550  -496  -388  -263  -171  -139  -160  -205  -249  -280  -297  -302  -298  -303  -323  -344  -357  -365  -364  -330  -242  -123  -33  0  0  0  16  46  71  86  97  108  114  113  105  97  92  91  89  88  97  124  165  203  226  238  260  324  442  573  659  685  675  644  589  503  390  263  142  46  -11  -35  -45  -57  -68  -65  -45  -13  25  69  106  117  133  218  387  586  781  1081  1716  2791  4043  4873  4653  3143  774  -1471  -2686  -2650  -1807  -763  39  419  463  384  329  317  324  331  333  332  325  310  286  269  283  340  430  512  530  477  399  343  321  326  346  379  431  494  545  576  597  616  631  640  646  660  693  737  784  842  912  965  986  988  984  964  921  879  879  928  991  1033  1044  1036  1019  985  922  838  750  659  541  382  214  75  -21  -90  -153  -228  -326  -453  -588  -693  -757  -806  -852  -880  -878  -847  -811  -797  -810  -829  -836  -825  -792  -741  -682  -634  -606  -611  -653  -708  -731  -702  -644  -602  -589  -589  -583  -573  -558  -529  -475  -404  -331  -256  -179  -126  -109  -113  -120  -119  -103  -73  -38  -6  12  19  20  19  8  -18  -53  -69  -51  -13  18  30  15  -29  -91  -140  -165  -172  -171  -167  -161  -154  -145  -132  -119  -115  -123  -156  -226  -313  -373  -378  -331  -250  -169  -112  -88  -92  -118  -154  -182  -191  -181  -165  -151  -144  -148  -160  -170  -180  -188  -196  -220  -278  -364  -441  -486  -495  -475  -435  -390  -360  -350  -355  -374  -406  -445  -481  -503  -515  -528  -549  -571  -589  -599  -611  -630  -653  -670  -678  -682  -682  -659  -591  -499  -432  -414  -432  -460  -482  -490  -477  -435  -373  -315  -278  -265  -266  -270  -262  -228  -167  -89  -15  47  112  202  301  370  394  394  386  365  303  178  0  -186  -328  -398  -411  -406  -413  -442  -471  -472  -449  -427  -414  -408  -402  -361  -231  15  327  618  968  1596  2558  3589  4190  3784  2144  -202  -2249  -3219  -2981  -1993  -910  -162  170  225  185  155  149  162  192  234  268  284  296  323  368  414  450  489  544  608  674  747  827  899  946  976  1005  1032  1044  1046  1054  1085  1142  1216  1286  1329  1339  1328  1312  1302  1311  1347  1398  1438  1452  1433  1374  1271  1156  1073  1033  1020  1018  1020  1015  987  930  861  811  770  696  570  436  329  241  148  50  -39  -120  -198  -281  -372  -470  -568  -650  -705  -729  -728  -709  -660  -564  -445  -359  -323  -300  -263  -210  -156  -113  -90  -86  -87  -84  -82  -92  -113  -132  -144  -154  -167  -182  -194  -198  -196  -191  -191  -201  -220  -241  -264  -299  -344  -389  -430  -461  -477  -480  -475  -470  -468  -464  -462  -464  -467  -472  -482  -498  -498  -463  -409  -368  -347  -331  -313  -295  -279  -271  -283  -325  -386  -438  -470  -487  -496  -500  -508  -522  -539  -549  -552  -557  -570  -589  -603  -613  -623  -633  -640  -642  -648  -666  -706  -766  -823  -858  -873  -873  -845  -766  -657  -572  -541  -545  -560  -567  -559  -542  -524  -504  -476  -441  -414  -399  -398  -418  -472  -545  -599  -598  -522  -378  -214  -89  -33  -34  -70  -118  -153  -151  -87  43  196  312  382  441  507  557  563  513  432  365  327  274  153  -21  -172  -245  -254  -234  -198  -158  -132  -129  -145  -187  -269  -370  -417  -301  -11  323  671  1201  2010  2938  3583  3435  2205  149  -1940  -3182  -3207  -2330  -1178  -268  229  430  480  468  448  439  432  422  414  422  466  554  659  732  756  752  746  756  793  857  931  994  1040  1084  1147  1233  1334  1423  1462  1451  1423  1403  1408  1429  1459  1497  1531  1539  1527  1517  1522  1541  1555  1526  1407  1191  930  707  570  520  520  528  513  452  344  231  163  150  164  171  132  6  -198  -395  -513  -567  -610  -658  -700  -746  -819  -910  -987  -1036  -1065  -1082  -1092  -1104  -1120  -1138  -1149  -1136  -1080  -986  -894  -843  -837  -851  -860  -854  -827  -776  -712  -657  -622  -608  -605  -607  -609  -611  -608  -596  -568  -533  -508  -506  -524  -550  -570  -585  -605  -636  -671  -701  -726  -749  -766  -773  -764  -728  -654  -566  -505  -485  -488  -496  -500  -502  -498  -485  -466  -448  -425  -375  -302  -245  -244  -301  -363  -356  -268  -148  -47  5  9  -7  -37  -90  -158  -203  -199  -154  -100  -68  -72  -101  -126  -117  -73  -29  -9  -12  -31  -63  -100  -127  -135  -126  -103  -71  -41  -24  -29  -70  -155  -241  -259  -196  -111  -59  -47  -51  -40  0  54  92  104  111  132  161  173  151  115  95  104  130  167  210  250  296  374  506  671  818  916  968  991  999  993  946  824  616  358  122  -43  -129  -168  -204  -251  -293  -311  -288  -211  -107  -33  -28  -89  -152  -98  138  499  924  1485  2290  3276  4087  4186  3185  1191  -1066  -2638  -3036  -2431  -1385  -494  -69  -32  -134  -206  -223  -216  -209  -209  -211  -204  -172  -110  -39  12  43  65  82  101  126  159  200  247  291  319  339  372  416  463  516  564  595  617  639  665  699  750  818  891  952  998  1037  1079  1124  1166  1193  1204  1205  1203  1200  1198  1192  1180  1157  1119  1063  989  904  814  728  646  554  432  285  130  -18  -148  -257  -344  -407  -455  -495  -529  -564  -607  -674  -777  -897  -983  -1009  -985  -925  -850  -784  -745  -730  -720  -694  -635  -559  -500  -474  -469  -467  -464  -462  -461  -461  -460  -454  -450  -456  -464  -459  -443  -430  -425  -425  -434  -457  -490  -518  -538  -552  -563  -570  -575  -574  -560  -533  -508  -502  -519  -542  -553  -550  -538  -514  -484  -462  -455  -463  -483  -509  -534  -553  -568  -582  -595  -605  -602  -576  -534  -499  -490  -508  -542  -576  -597  -604  -607  -609  -602  -573  -532  -504  -495  -486  -449  -377  -307  -292  -346  -435  -521  -563  -548  -501  -456  -430  -421  -418  -421  -440  -469  -481  -472  -464  -472  -487  -497  -492  -475  -451  -426  -409  -408  -420  -439  -453  -450  -422  -375  -328  -300  -293  -300  -314  -312  -247  -85  144  358  491  542  546  527  484  419  351  288  220  134  27  -103  -245  -360  -423  -448  -453  -445  -428  -403  -375  -353  -354  -370  -352  -237  -8  303  735  1451  2502  3592  4169  3682  1974  -410  -2438  -3318  -3013  -2035  -997  -325  -56  47  134  202  244  280  312  329  333  332  334  342  354  371  395  426  455  469  468  475  535  676  849  965  984  928  848  786  762  776  825  896  959  999  1025  1062  1117  1180  1230  1262  1282  1306  1340  1374  1391  1395  1403  1423  1447  1455  1435  1383  1314  1256  1223  1196  1165  1116  1047  982  944  913  863  788  694  595  512  457  408  329  225  138  74  1  -84  -153  -206  -266  -334  -390  -425  -443  -455  -465  -472  -475  -475  -477  -480  -477  -456  -407  -334  -252  -188  -152  -137  -128  -109  -85  -71  -70  -72  -75  -81  -95  -112  -126  -132  -132  -129  -124  -119  -119  -127  -140  -153  -158  -146  -118  -88  -68  -57  -49  -45  -55  -90  -136  -171  -180  -173  -162  -151  -138  -124  -114  -114  -119  -119  -107  -91  -77  -69  -70  -77  -85  -93  -101  -105  -105  -106  -114  -126  -138  -142  -130  -96  -52  -36  -73  -150  -228  -280  -300  -296  -283  -273  -271  -278  -294  -317  -332  -313  -245  -153  -87  -64  -62  -52  -22  21  72  126  189  261  318  327  274  169  48  -47  -116  -192  -290  -392  -476  -544  -610  -675  -732  -768  -783  -782  -755  -705  -685  -730  -782  -738  -501  -14  702  1561  2397  2885  2638  1456  -460  -2453  -3733  -3918  -3195  -2077  -1114  -611  -505  -562  -614  -621  -601  -564  -517  -474  -450  -445  -452  -463  -472  -471  -455  -427  -399  -370  -306  -193  -61  43  103  127  136  157  219  315  403  469  549  668  791  868  894  888  846  754  659  647  748  916  1076  1163  1179  1165  1131  1086  1063  1084  1144  1213  1268  1297  1288  1221  1087  912  731  551  373  223  107  -32  -233  -459  -648  -770  -835  -864  -871  -872  -891  -932  -965  -958  -899  -817  -751  -706  -662  -620  -603  -619  -645  -648  -620  -578  -541  -519  -503  -480  -438  -385  -340  -311  -295  -284  -275  -269  -266  -266  -267  -267  -265  -260  -256  -267  -291  -293  -249  -181  -127  -97  -80  -70  -69  -82  -101  -113  -117  -116  -114  -110  -103  -99  -101  -108  -116  -126  -138  -149  -154  -152  -149  -150  -156  -159  -139  -78  5  66  87  87  81  73  59  40  28  37  67  104  133  147  149  144  140  152  190  242  280  291  285  277  269  259  250  262  314  402  490  556  611  663  700  715  713  694  651  590  520  429  291  128  7  -40  -48  -54  -67  -84  -98  -106  -107  -110  -131  -179  -223  -209  -131  -28  89  250  554  1233  2379  3627  4355  4051  2539  219  -1961  -3117  -3031  -2123  -1047  -313  -60  -97  -186  -214  -173  -89  -5  39  36  10  -23  -73  -132  -174  -188  -180  -158  -128  -104  -90  -78  -62  -36  4  62  123  179  226  268  315  375  442  499  540  577  624  678  731  785  849  925  1002  1076  1137  1169  1168  1147  1115  1086  1070  1064  1062  1065  1067  1061  1028  948  829  699  578  476  384  272  119  -47  -192  -320  -441  -550  -654  -759  -843  -888  -903  -903  -897  -885  -860  -820  -772  -730  -704  -695  -695  -703  -725  -757  -786  -805  -811  -805  -794  -786  -784  -786  -789  -792  -797  -802  -796  -758  -685  -608  -563  -553  -555  -543  -512  -473  -444  -431  -429  -433  -443  -458  -475  -484  -477  -458  -442  -435  -435  -438  -439  -432  -406  -363  -319  -284  -254  -230  -214  -203  -190  -166  -121  -67  -29  -16  -15  -16  -21  -38  -75  -125  -173  -208  -222  -222  -216  -205  -189  -167  -149  -136  -115  -96  -106  -137  -151  -148  -145  -157  -181  -211  -239  -258  -260  -248  -232  -229  -258  -311  -355  -375  -386  -407  -435  -457  -465  -464  -457  -438  -394  -316  -226  -155  -110  -71  -2  123  278  399  457  474  473  461  431  365  242  65  -133  -311  -435  -497  -516  -516  -513  -511  -511  -511  -515  -524  -525  -488  -399  -300  -223  -120  63  406  1079  2144  3331  4133  4022  2722  536  -1672  -3019  -3164  -2395  -1322  -460  6  143  103  18  -38  -35  17  84  146  207  268  318  345  351  349  356  382  421  449  458  457  454  452  452  455  465  482  511  572  679  803  899  944  958  959  938  872  780  725  748  838  946  1019  1058  1104  1171  1237  1276  1289  1303  1343  1409  1470  1505  1517  1502  1438  1312  1143  965  791  624  476  367  299  247  167  27  -162  -337  -442  -484  -502  -514  -522  -525  -526  -522  -508  -482  -452  -430  -421  -423  -432  -457  -503  -557  -593  -593  -558  -511  -474  -459  -459  -465  -472  -473  -467  -463  -478  -532  -615  -687  -720  -722  -706  -669  -583  -448  -315  -237  -210  -196  -177  -160  -150  -151  -175  -234  -315  -380  -411  -417  -410  -397  -381  -365  -341  -298  -241  -180  -121  -70  -45  -53  -80  -112  -148  -188  -222  -242  -248  -248  -253  -270  -308  -361  -411  -449  -474  -492  -509  -526  -529  -501  -444  -386  -361  -365  -372  -360  -323  -265  -198  -140  -101  -82  -82  -100  -137  -181  -214  -228  -230  -228  -228  -231  -245  -271  -301  -318  -323  -329  -336  -336  -319  -280  -224  -160  -75  49  194  308  371  413  457  494  498  446  342  208  83  5  -14  -18  -60  -162  -281  -353  -353  -322  -313  -339  -383  -434  -477  -493  -440  -263  28  398  936  1763  2735  3414  3287  2064  -42  -2265  -3684  -3855  -3036  -1849  -848  -299  -124  -86  -44  8  48  68  76  74  62  50  50  62  78  101  148  226  313  385  440  489  532  564  585  596  587  563  545  551  585  637  702  777  861  945  1016  1061  1081  1093  1106  1122  1145  1183  1224  1250  1257  1255  1251  1249  1249  1252  1257  1261  1264  1268  1269  1256  1214  1138  1040  936  837  733  599  437  283  145  6  -142  -291  -422  -513  -556  -565  -559  -555  -558  -564  -575  -587  -596  -599  -590  -568  -535  -502  -468  -443  -446  -480  -523  -547  -539  -504  -444  -377  -331  -316  -319  -324  -325  -322  -314  -298  -269  -221  -166  -124  -98  -81  -75  -91  -139  -206  -252  -261  -249  -234  -228  -234  -248  -264  -273  -272  -265  -258  -242  -206  -157  -118  -100  -99  -103  -106  -105  -104  -108  -110  -92  -51  -14  -1  8  34  61  74  78  78  78  76  68  55  35  1  -48  -101  -135  -149  -156  -168  -184  -199  -212  -218  -206  -169  -103  -18  68  143  194  219  226  226  228  227  208  155  65  -40  -130  -191  -253  -355  -486  -586  -620  -609  -586  -571  -558  -525  -480  -474  -523  -552  -474  -264  76  573  1289  2208  3102  3531  3058  1576  -511  -2409  -3385  -3274  -2454  -1474  -772  -470  -417  -431  -438  -436  -433  -425  -409  -388  -363  -331  -294  -266  -245  -209  -133  -14  114  197  218  216  238  304  389  453  481  489  494  492  478  454  432  417  413  426  473  573  720  864  947  967  957  945  942  967  1047  1173  1293  1361  1373  1351  1320  1289  1242  1156  1028  882  754  644  525  383  211  17  -169  -334  -496  -665  -816  -927  -998  -1040  -1064  -1076  -1078  -1076  -1070  -1061  -1046  -1021  -987  -951  -919  -896  -879  -865  -856  -841  -797  -722  -646  -601  -588  -584  -576  -561  -542  -520  -492  -462  -439  -430  -430  -433  -436  -435  -431  -429  -431  -434  -434  -433  -445  -479  -522  -545  -529  -483  -430  -396  -388  -388  -382  -363  -337  -316  -307  -309  -314  -318  -317  -309  -292  -268  -243  -217  -189  -168  -160  -160  -163  -167  -171  -174  -175  -176  -182  -201  -228  -254  -272  -281  -279  -259  -219  -175  -146  -136  -137  -142  -149  -158  -163  -160  -155  -158  -176  -212  -257  -295  -304  -256  -127  53  208  296  339  381  447  554  704  860  963  994  979  936  871  798  730  651  544  425  330  268  228  208  206  210  203  170  115  53  -10  -69  -83  14  250  546  782  1032  1547  2448  3545  4364  4298  2986  726  -1540  -2860  -2939  -2163  -1156  -401  -53  30  50  82  115  123  109  93  86  85  82  76  66  51  33  22  24  40  71  113  158  188  199  194  186  194  241  334  449  551  619  651  663  674  702  749  801  838  852  850  849  865  910  983  1061  1113  1131  1132  1138  1160  1186  1196  1185  1163  1129  1068  969  836  699  592  513  436  351  259  142  11  -90  -160  -246  -363  -474  -549  -615  -703  -800  -874  -910  -917  -909  -901  -895  -892  -890  -887  -876  -853  -822  -798  -787  -780  -765  -730  -669  -597  -546  -524  -516  -508  -495  -482  -472  -456  -433  -413  -404  -411  -435  -469  -501  -520  -515  -485  -447  -417  -397  -381  -366  -356  -353  -348  -327  -290  -252  -225  -204  -187  -176  -166  -157  -158  -173  -191  -203  -210  -234  -279  -323  -344  -329  -303  -304  -322  -318  -296  -281  -277  -278  -279  -282  -288  -295  -298  -295  -291  -292  -301  -317  -333  -344  -352  -355  -341  -305  -258  -234  -253  -288  -304  -297  -274  -246  -224  -213  -209  -210  -214  -218  -222  -227  -234  -241  -242  -231  -202  -163  -129  -104  -81  -60  -54  -65  -75  -73  -59  -42  -32  -33  -52  -82  -87  -45  8  35  37  36  45  62  76  90  119  179  272  373  455  503  521  524  528  534  520  463  344  170  -4  -122  -183  -222  -253  -277  -300  -324  -340  -338  -316  -287  -269  -273  -281  -240  -97  125  384  741  1334  2222  3237  3923  3735  2409  216  -2013  -3327  -3355  -2445  -1214  -215  278  372  330  306  322  354  382  407  441  483  511  508  485  461  445  438  435  437  465  542  648  725  739  699  632  563  502  450  413  389  382  413  505  627  715  748  763  808  897  1003  1076  1099  1091  1072  1052  1039  1030  1015  987  953  931  931  949  971  977  953  885  767  617  482  392  310  178  -9  -209  -387  -539  -662  -751  -803  -836  -872  -919  -960  -985  -1002  -1017  -1032  -1046  -1056  -1059  -1038  -980  -902  -840  -807  -790  -778  -762  -731  -691  -654  -626  -605  -586  -570  -555  -535  -516  -495  -452  -374  -272  -172  -110  -95  -110  -135  -163  -185  -198  -203  -212  -233  -262  -285  -294  -288  -267  -238  -214  -205  -208  -218  -229  -239  -243  -226  -173  -94  -27  5  8  -2  -16  -23  -21  -21  -18  0  25  34  11  -30  -52  -19  45  98  116  105  86  75  73  76  90  125  173  209  216  190  141  89  54  36  22  2  -32  -75  -107  -118  -115  -107  -100  -100  -117  -162  -228  -292  -333  -344  -322  -271  -211  -166  -147  -146  -150  -150  -131  -85  -14  60  109  122  114  101  88  70  30  -50  -177  -323  -452  -541  -597  -637  -664  -679  -680  -647  -558  -437  -347  -329  -377  -458  -482  -332  -14  337  728  1341  2236  3167  3661  3235  1730  -398  -2225  -3005  -2679  -1719  -694  9  286  282  217  205  245  299  335  348  348  345  340  325  303  289  294  322  352  363  362  369  383  392  409  456  537  631  723  804  856  871  859  848  862  896  925  935  933  926  914  909  946  1058  1211  1325  1362  1343  1296  1233  1173  1138  1130  1127  1102  1050  989  926  838  698  516  343  215  124  41  -48  -137  -221  -316  -422  -510  -564  -602  -659  -748  -845  -914  -942  -944  -938  -932  -926  -922  -922  -934  -960  -996  -1030  -1044  -1040  -1039  -1053  -1072  -1079  -1054  -999  -948  -915  -894  -884  -883  -889  -896  -882  -819  -702  -571  -474  -435  -447  -499  -567  -625  -663  -685  -693  -686  -664  -644  -642  -663  -694  -706  -676  -611  -539  -479  -431  -395  -372  -355  -333  -295  -246  -199  -170  -168  -201  -273  -362  -430  -460  -453  -416  -357  -292  -234  -189  -164  -158  -155  -132  -83  -26  11  22  19  12  9  20  61  129  192  221  224  219  213  206  203  204  204  193  154  83  7  -35  -31  6  63  122  163  182  185  183  181  180  179  178  178  183  196  209  217  228  279  397  553  672  715  709  702  725  783  855  904  894  804  641  455  294  180  108  58  11  -28  -44  -28  13  63  104  130  125  65  -7  9  168  475  944  1598  2470  3481  4295  4411  3433  1421  -929  -2634  -3108  -2491  -1398  -464  -8  67  34  34  58  88  119  146  159  162  174  216  288  377  466  544  598  615  591  543  503  487  488  499  515  529  538  538  528  507  485  470  465  464  461  455  450  452  463  475  481  484  492  505  527  560  593  617  626  617  585  542  504  472  434  393  365  346  313  249  164  76  -14  -121  -242  -354  -459  -575  -705  -831  -923  -963  -965  -956  -964  -1010  -1086  -1155  -1190  -1176  -1110  -1010  -914  -846  -807  -788  -773  -750  -716  -685  -668  -663  -664  -664  -663  -658  -645  -620  -587  -551  -510  -476  -462  -462  -451  -414  -361  -314  -289  -284  -295  -322  -359  -388  -401  -407  -411  -408  -385  -343  -294  -245  -201  -171  -161  -159  -155  -143  -128  -115  -99  -75  -52  -43  -53  -69  -74  -58  -30  -11  -5  -6  -17  -43  -78  -105  -117  -118  -113  -97  -67  -24  17  43  49  54  78  120  161  187  199  206  211  214  210  193  168  155  164  180  201  237  273  291  282  245  191  145  112  90  74  60  38  11  -8  -17  -22  -32  -50  -72  -90  -102  -111  -113  -92  -34  51  132  187  227  269  316  365  413  448  462  455  429  386  318  198  26  -142  -264  -364  -469  -564  -633  -682  -709  -713  -703  -693  -690  -690  -671  -616  -529  -408  -225  24  374  942  1835  2908  3721  3758  2682  614  -1691  -3239  -3530  -2785  -1622  -644  -144  -29  -42  -50  -46  -27  8  47  84  121  156  194  241  292  331  350  354  359  366  365  358  349  341  334  330  326  326  335  360  390  404  393  370  352  342  341  342  348  375  439  523  598  656  701  734  750  754  752  748  746  752  770  797  818  814  774  702  629  582  555  526  478  411  327  226  111  -20  -184  -385  -574  -707  -792  -851  -889  -906  -914  -914  -904  -886  -864  -837  -803  -761  -711  -665  -643  -638  -621  -564  -483  -420  -393  -385  -381  -375  -373  -373  -370  -361  -352  -348  -348  -347  -346  -347  -352  -362  -369  -366  -348  -321  -296  -273  -249  -231  -232  -259  -300  -328  -327  -289  -220  -148  -100  -83  -83  -86  -89  -91  -93  -92  -89  -88  -95  -108  -117  -108  -71  -7  60  97  89  41  -25  -87  -137  -182  -221  -252  -278  -302  -324  -345  -369  -401  -430  -424  -375  -305  -241  -195  -172  -167  -170  -174  -175  -169  -152  -129  -109  -99  -97  -99  -93  -52  49  185  290  335  350  368  396  422  429  399  319  212  114  23  -81  -184  -252  -279  -284  -269  -223  -151  -79  -34  -35  -102  -216  -294  -247  -47  273  693  1270  2060  2896  3357  3008  1657  -429  -2459  -3568  -3485  -2564  -1384  -477  -72  -13  -30  0  60  109  136  145  139  125  117  131  174  229  270  285  284  277  268  257  246  245  260  286  312  341  371  398  427  484  575  682  788  875  931  959  973  985  1003  1031  1074  1134  1200  1247  1267  1269  1265  1260  1256  1261  1280  1313  1352  1390  1414  1389  1269  1062  848  689  576  480  381  260  106  -51  -178  -276  -374  -470  -547  -611  -682  -748  -783  -775  -740  -696  -653  -614  -581  -550  -525  -510  -514  -534  -551  -551  -543  -537  -536  -542  -551  -556  -557  -557  -557  -554  -545  -529  -512  -502  -496  -478  -424  -335]
